t,theta,theta_d,x,x_d,theta_dd,x_dd,force_in
400.0,170.22460945052367,3.3920950178722977,-14.137624190189436,-1.1019033929411752,9.119085931397743,-0.8603686432897811,-0.8793395112426776
400.01,170.25894321340593,3.4835831266835,-14.148636199311614,-1.109027483865696,9.133416228330747,-0.5518502953183838,-0.5826102049127018
400.02,170.2941878503328,3.5757670521759266,-14.15969321987744,-1.1130617744044917,9.160538473539487,-0.23898591636383398,-0.28378413098856403
400.03000000000003,170.33035257171926,3.6687832938671976,-14.170765996039432,-1.1139650754209525,9.202814776092273,0.07730602069389336,0.016063259359319095
400.04,170.36744821689257,3.7627745499380634,-14.181825236872903,-1.1117042612384203,9.262547356795967,0.3961188551322802,0.3158528393174771
400.05,170.40548725409343,3.8578897172355764,-14.192841616376343,-1.1062542696402218,9.341945950930661,0.7165630057485693,0.6145056901342288
400.06,170.44448378047522,3.9542838912709772,-14.203785773471155,-1.0975981018696284,9.443094552722018,1.0377707582552471,0.910946984053012
400.07,170.4844535221042,4.052118366220226,-14.21462831200173,-1.085726822629871,9.567917747662408,1.3589004205089847,1.2041098525339018
400.08,170.52541383395942,4.1515606349239995,-14.22533980073544,-1.07063956008414,9.718146829982947,1.6791396821830022,1.4929392258282757
400.09000000000003,170.5673836999331,4.252784388888274,-14.235890773362698,-1.0523435058554722,9.895285833190028,1.9977080045420352,1.7763956300905686
400.1,170.61038373282958,4.355969518282011,-14.246251728496723,-1.0308539150271847,10.10057750994586,2.313857855039652,2.0534589283636953
400.11,170.65443617436674,4.4613021119406095,-14.256393129673896,-1.0061941061422508,10.33496918248909,2.626874590344389,2.323131991960118
400.12,170.69956489517517,4.568974457363616,-14.26628540535352,-0.9783954612036989,10.599078245244302,2.93607477993929,2.5844442890710124
400.13,170.74579539479825,4.679185040715297,-14.275898948917884,-0.9474974256745162,10.893156937731481,3.2408027501721377,2.8364553776022916
400.14,170.79315480169222,4.792138546824633,-14.285204118672256,-0.9135475084776491,11.21705581876085,3.5404251158116278,3.0782582897821866
400.15000000000003,170.84167187322652,4.908045859185991,-14.29417123784494,-0.8766012819957852,11.570185165458222,3.8343230520145397,3.3089827962370495
400.16,170.89137699568255,5.027124059956472,-14.302770594587072,-0.836722382072211,11.951473296821975,4.121882045120343,3.5277985378980836
400.17,170.94230218425542,5.149596429959859,-14.310972441972917,-0.7939825080095486,12.359320589574999,4.4024788456225705,3.733918014387956
400.18,170.99448108305285,5.275692448684005,-14.318746997999682,-0.748461422570583,12.791547725057876,4.6754653328661036,3.9265994181736263
400.19,171.0479489650954,5.405647794281478,-14.326064445587548,-0.7002469519780578,13.245336498006699,4.940148990267164,4.105149304272415
400.2,171.1027427323165,5.539704343569564,-14.332894932579686,-0.6494349859146755,13.717161356316641,5.195769685873622,4.268925085905105
400.21000000000004,171.15890091556273,5.6781101720310705,-14.33920857174228,-0.5961294775227888,14.202709762100923,5.441472461339916,4.417337347115505
400.22,171.21646367459263,5.821119553811142,-14.34497544076439,-0.5404424434056262,14.696789519569952,5.676276061012975,4.54985196402702
400.23,171.27547279807854,5.9689929617219954,-14.350165582258171,-0.4824939636254723,15.193221475065695,5.899036993508168,4.665992027118565
400.24,171.33597170360528,6.121997067239786,-14.354749003758725,-0.42241218170486816,15.684716553731354,6.10840902684795,4.76533955757923
400.25,171.3980054376706,6.280404740505386,-14.35869567772413,-0.3603333046263135,16.162737080970143,6.302798196687095,4.847537011581815
400.26,171.46161713554469,6.444284658282652,-14.361986180604376,-0.2963837314528988,16.61727905322358,6.48019240973469,4.9122885670545084
400.27,171.52685646226757,6.612776216480991,-14.364633587242741,-0.2306851490915966,17.03651749906738,6.637689463470425,4.959361188320899
400.28000000000003,171.5937953036827,6.78526566781303,-14.366618587497351,-0.16349278621668778,17.40679734868485,6.772113195752006,4.988585464776911
400.29,171.6624908198891,6.961047084010605,-14.36792286610396,-0.09510354304569466,17.712205669190922,6.879784570912842,4.999856220585293
400.3,171.73298295157642,7.139255968321511,-14.368533263436259,-0.025847026930764128,17.934508877828286,6.956486781648713,4.99313289319638
400.31,171.80529442002344,7.318869255505597,-14.368441775505831,0.04391444763981173,18.053260293418464,6.9975062624660085,4.968439679328448
400.32,171.8794307270986,7.498705311835739,-14.367645553962156,0.11378585904197275,18.046110026267005,6.997722717631711,4.9258654478859505
400.33,171.9553801552597,7.6774239350978375,-14.366146906092625,0.18333947851589144,17.88937987641988,6.951759915560449,4.86556342012743
400.34000000000003,172.03311376755465,7.853526354591809,-14.363953294822513,0.2521148701663605,17.558961119375766,6.854207526668847,4.78775061823444
400.35,172.11258540761955,8.025355231127595,-14.361077338715038,0.3196188909612328,17.031575502373624,6.699920450162964,4.692707084265266
400.36,172.19373169968125,8.191094657031181,-14.357536811971288,0.38532569073377126,16.28640550247574,6.484395216056226,4.580774872309851
400.37,172.27647204855586,8.34877015614057,-14.353354644430263,0.4486767121810778,15.307046784141479,6.204212810435866,4.452356817455563
400.38,172.36070863964886,8.496248683806789,-14.348558921568864,0.5090806908644863,14.083665533962698,5.857523969649946,4.3079150860289035
400.39,172.44632643895542,8.63123862689389,-14.3431828845019,0.565913655209564,12.615163505567525,5.444537960889244,4.147969512280287
400.40000000000003,172.5331931930606,8.751289803779587,-14.337264929982043,0.6185189265063946,10.911078788248753,4.967961682884425,3.973095727558174
400.41,172.6211594291376,8.853793464352606,-14.330848610399975,0.6662071189084089,8.9929012650814,4.433326228248854,3.783923088645383
400.42,172.71005845495063,8.9359822900168,-14.323982633784178,0.7082561394341815,6.894481302767697,3.849136878106004,3.5811324127600646
400.43,172.7997058736445,8.994932305863008,-14.316720945838616,0.7439107363392049,4.661286735067222,3.226795265875254,3.3654535273477544
400.44,172.88982211731295,9.028716993648247,-14.309136077008514,0.7725452845743059,2.349918676928368,2.580517826762234,3.1376626434906885
400.45,172.98011945490958,9.038198317936182,-14.30130390229243,0.794301481313894,0.021773627252180655,1.9255493063375066,2.898579562386117
400.46000000000004,173.07036954057043,9.02470468184374,-14.293289813390727,0.8095295865811293,-2.2634969081015788,1.2764546929664564,2.649064724945341
400.47,173.1603593712819,8.989634630491867,-14.285155777917437,0.8185833008690974,-4.451009335388342,0.6464842035651847,2.390016115143239
400.48,173.24989128688404,8.93445685100504,-14.276960339399997,0.8218197651413264,-6.493792831830708,0.04692375817310587,2.1223660282343153
400.49,173.33878297006817,8.86071017251146,-14.268758617279428,0.8195995608314052,-8.354883138057549,-0.5133435601783278,1.8470777155040308
400.5,173.4268674463777,8.770003566143043,-14.260602306910288,0.8122867098430887,-10.008265767947188,-1.028046798006647,1.565141917602511
400.51,173.51399308420795,8.664016145035411,-14.252539679560671,0.8002486745502975,-11.438745621163047,-1.493520559969516,1.277573298948074
400.52,173.60002359480623,8.5444971643279,-14.244615582412214,0.7838563577971183,-12.640950935831613,-1.9085196376160134,0.9854067960310322
400.53000000000003,173.6848380322723,8.41326602116278,-14.236871438560044,0.7634841028976769,-13.617749193231916,-2.273904895019352,0.6896938927576726
400.54,173.76833079355637,8.272212254688307,-14.22934524701296,0.7395096936366252,-14.378363016626425,-2.592253128802815,0.3914988362526445
400.55,173.85041161846212,8.123295546054239,-14.222071582693166,0.7123143542684425,-14.93643948780952,-2.8674384055215976,0.09189480670511754
400.56,173.93100558964474,7.96854571841475,-14.215081596436448,0.6822827495178788,-15.308265682150031,-3.1042225729433413,-0.2080399449120648
400.57,174.01005313261135,7.810062736927732,-14.20840301499213,0.64980298457985,-15.511254415638847,-3.3078812996053504,-0.5072259773837452
400.58,174.08751001572097,7.650016708754783,-14.202060141023079,0.6152666051194378,-15.56276033469083,-3.483881348957646,-0.8045865440751709
400.59000000000003,174.16334735018512,7.490647883060318,-14.196073853105657,0.5790685972716803,-15.479235083011575,-3.6376160924122427,-1.099051468057131
400.6,174.23755159006595,7.334266651015179,-14.190461605729874,0.5416073876424039,-15.275694040459992,-3.774199926871503,-1.3895609935894346
400.61,174.3101404908949,7.1826999095873685,-14.185235696515951,0.5032048577540877,-14.965336691105955,-3.8979477580994875,-1.6750696000862622
400.62,174.38121608032887,7.035126183493878,-14.18039957841611,0.46373648920603894,-14.55929016159825,-4.010877243055541,-1.9545497648851604
400.63,174.45083763925547,6.89207632779245,-14.17596340230994,0.42319706576919974,-14.067777221211296,-4.115435173279013,-2.226995661186759
400.64,174.51905997772008,6.754305712598765,-14.17193795435504,0.381619302570654,-13.499924512811559,-4.2137417327622835,-2.4914267779788783
400.65000000000003,174.58594209779423,6.622511050912369,-14.168333582392934,0.3390376639704188,-12.863886970005334,-4.307421864964417,-2.7468914487863065
400.66,174.65154719357415,6.49733039861964,-14.165160195949152,0.29548836356241825,-12.167039074540249,-4.3976369163845765,-2.9924702766649123
400.67,174.71594265118293,6.379343154489293,-14.16242726623311,0.251009364173031,-11.416151475677486,-4.48512215359291,-3.2272794430276437
400.68,174.77920004876913,6.269070060175404,-14.160143826138185,0.20564037786205291,-10.617544773465076,-4.570227688058879,-3.450473888439066
400.69,174.841395156507,6.166973200216656,-14.158318470241708,0.15942286592245786,-9.77721644944427,-4.652960909048566,-3.6612503539167776
400.7,174.90260793659667,6.073456002036329,-14.15695935480495,0.1124000388803974,-8.90094005111533,-4.733028964719524,-3.8588502717963276
400.71000000000004,174.9629225432643,5.988863235941849,-14.15607419777313,0.06461685649492815,-7.994337941111972,-4.80988017471499,-4.042562495756992
400.72,175.0224273227609,5.913481015126661,-14.155670278775421,0.01612002775910082,-7.062930354173588,-4.8827435308536025,-4.211725860175125
400.73,175.08121481336423,5.847536795667341,-14.155754439124928,-0.033041989101668,-6.112164303337664,-4.9506656680031185,-4.3657315596147805
400.74,175.13938174537748,5.7911993765255705,-14.156333081818712,-0.08281898662851483,-5.147426168561322,-5.012544881667775,-4.504025339864173
400.75,175.19702904112967,5.744578899547635,-14.157412171537771,-0.13315900812939774,-4.174041698624621,-5.067161944207568,-4.626109492653766
400.76,175.25426181497554,5.707726849464417,-14.15899723464706,-0.18400834767909713,-3.1972667603934015,-5.113207635564718,-4.731544646868583
400.77,175.31118855297527,5.680639234940751,-14.16109324350272,-0.2353104635536013,-2.2222831674822126,-5.149308612061084,-4.819951349809754
400.78000000000003,175.36789618148995,5.66332729839352,-14.16370186850789,-0.2869571363708619,-1.2545456098366319,-5.174085070063949,-4.891011432814946
400.79,175.42447777622974,5.655666185255208,-14.166826417364613,-0.3388005458505091,-0.29938489262033174,-5.186101290340022,-4.944469156319945
400.8,175.48103263285773,5.657451102369489,-14.170469823556168,-0.39069051487450296,0.63806382281563,-5.183907749673272,-4.98013213024815
400.81,175.53765610074396,5.668447440978431,-14.174632862538767,-0.4424678255143433,1.5527670353795473,-5.16607888681675,-4.997872006404813
400.82,175.5944395829657,5.688390776722375,-14.179314151741563,-0.49396421903136273,2.439846931549343,-5.131227101228481,-4.997624940392535
400.83,175.6514705363075,5.71698686963993,-14.184510150566659,-0.5450023958767267,3.294646740862295,-5.078017666345919,-4.979391821382161
400.84000000000003,175.7088324712615,5.753911664168208,-14.190215160389135,-0.5953960156917175,4.112807647707305,-5.005185074087209,-4.943238268912723
400.85,175.76660495202606,5.798811289141938,-14.196421324556916,-0.6449496973065919,4.890356937532042,-4.911551191769954,-4.889294396731485
400.86,175.82486359650784,5.851302057794722,-14.203118628390971,-0.693459018742302,5.6238062775596545,-4.796045446669691,-4.817754344527332
400.87,175.88368007632036,5.910970467758252,-14.21029489918518,-0.7407105172093437,6.31025804674732,-4.657727058314114,-4.7288755792320485
400.88,175.94312211678445,5.977373201062487,-14.217935806206372,-0.7864816891080461,6.947516479775742,-4.495809119540528,-4.622977968425838
400.89,176.00325349692815,6.050037124135652,-14.226024860694318,-0.8305409900285703,7.534199141513124,-4.309684093943951,-4.500442629148702
400.90000000000003,176.06413404948714,6.128459287804709,-14.234543415861785,-0.8726478347511445,8.069842996098506,-4.098950064253396,-4.361710556302345
400.91,176.1258196609033,6.212106927293531,-14.243470666894337,-0.9125525972451155,8.554998195805863,-3.8634368518485713,-4.207281035535488
400.92,176.18836227132672,6.300417462225587,-14.252783650950635,-0.9499966106703881,8.991301825045655,-3.6032309540280796,-4.0377098463590215
400.93,176.2518098746146,6.3927984966221825,-14.262457247162224,-0.9847121673764545,9.381523333498802,-3.3186981348811564,-3.853607261939069
400.94,176.31620651833117,6.488627818902898,-14.27246417663361,-1.01642251890264,9.729573408547425,-3.010502477887089,-3.655635852772608
400.95,176.38158827385422,6.587413165122042,-14.282777214609926,-1.0449106925661442,10.040371397065076,-2.679582929363158,-3.444508102149171
400.96000000000004,176.44797646183676,6.6889982630574325,-14.29336346679726,-1.070005730124028,10.319590410173323,-2.3270762828932208,-3.220983841978651
400.97,176.5153918322184,6.793222852706251,-14.30418317896489,-1.0914744317385252,10.573755837606592,-1.9543450617645781,-2.9858675182238144
400.98,176.58385645060832,6.899969698576145,-14.31519598271477,-1.10910689072392,10.810064948331881,-1.562945855441794,-2.740005295753367
400.99,176.65339368458714,7.009165431417012,-14.326360924723252,-1.122717062981017,11.036167598197286,-1.1546070765253165,-2.484282013068863
401.0,176.72402820370735,7.120780548221561,-14.337636466741138,-1.1321427669972939,11.259921137549851,-0.7312064530696639,-2.2196179978399595
401.01,176.79578597949333,7.234829412225325,-14.348980485593684,-1.137245683846901,11.489125196545894,-0.2947500445551999,-1.9469657547186403
401.02,176.8686942854413,7.351370252906647,-14.3603502731806,-1.1379113571906618,11.731242075777933,0.1526451521420004,-1.6673065373510512
401.03000000000003,176.94278169701977,7.470505165987374,-14.37170253647611,-1.1340491932760384,11.993107515267786,0.6087629368619498,-1.3816468169218155
401.04,177.0180780916678,7.592380113430132,-14.382993397528706,-1.1255924609372434,12.280635176689714,1.0712919944498258,-1.0910146599533261
401.05,177.0946146487977,7.717184923442389,-14.394178393461518,-1.112498291595111,12.598516425592784,1.5378205108087026,-0.7964560283634582
401.06,177.17242384979303,7.845153290473753,-14.40521247647207,-1.0947476792571567,12.94991517135601,2.0058197141831315,-0.49903101514078363
401.07,177.2515394780094,7.976562775216658,-14.416050013832338,-1.072345480517569,13.336155891468252,2.472615024058597,-0.19981002915243162
401.08,177.33199661877416,8.111734804606346,-14.426644787888753,-1.0453204145572101,13.756401861262313,2.935343844888272,0.10013005717193003
401.09000000000003,177.41383165938706,8.251034671821689,-14.436949996062253,-1.0137250631434218,14.207320414420765,3.3908994948556628,0.39970978341795915
401.1,177.49708228911825,8.39487153628198,-14.44691825084806,-0.9776358706307718,14.682733225676886,3.835861362559792,0.6978509860807047
401.11,177.58178749921117,8.5436984236517,-14.45650157981602,-0.9371531439599743,15.173252669472612,4.266412215385754,0.9934806787776989
401.12,177.66798282532787,8.697978261542854,-14.46565583449431,-0.8923576803206086,15.66588281973095,4.678217449501716,1.2855349138659347
401.13,177.75571571215505,8.857645572539177,-14.474348117884514,-0.8433431297260147,16.1435566228829,5.06590823565854,1.5729626114709871
401.14,177.84506912559905,9.022053621363854,-14.482532627902012,-0.790533302996747,16.58451643770024,5.422924784932125,1.854729342274841
401.15000000000003,177.936107893236,9.190317938727173,-14.490168974442389,-0.7344158446717658,16.96168435124799,5.74173831956138,2.1298210503116914
401.16,178.0288751186689,9.361326619357216,-14.497224090127416,-0.6755185512572258,17.24266865820109,6.0139358528884985,2.3972477024981607
401.17,178.123392181531,9.53374032200562,-14.503672230305321,-0.6144093712245573,17.3902813253651,6.2304053683292615,2.6560468516725075
401.18,178.2196587374835,9.705992269443762,-14.509494973050602,-0.551696405011727,17.363727242539444,6.381658846281464,2.905287100367249
401.19,178.31765271821624,9.876288248463695,-14.514681219164082,-0.4880279050229279,17.12062626291748,6.458320360956402,3.1440714528342557
401.2,178.4173303314476,10.04260660987817,-14.519227192172897,-0.424092275628579,16.619964827854343,6.451794245074456,3.3715405432608025
401.21000000000004,178.51862606092513,10.202698268521498,-14.523136438330528,-0.36061807316496775,15.825948461532645,6.355105116677414,3.5868757285600794
401.22,178.6214526664232,10.354086703245967,-14.526419826616708,-0.2983740059356911,14.712535556454855,6.163866656944503,3.789302034595843
401.23,178.72570118374654,10.494067956927305,-14.529095548737562,-0.23816893420948393,13.26819382982463,5.87729240041522,3.978090945262221
401.24,178.83124092472778,10.619710636460994,-14.531189119125505,-0.18085187022167115,11.500180732818064,5.499117654838096,4.152563024348375
401.25,178.93791947722815,10.727855912763205,-14.532733374939276,-0.1273119781738027,9.437484521331802,5.038270369416515,4.31209036077683
401.26,179.04556270513754,10.815117520770794,-14.533768476063932,-0.07847857423365578,7.131562660652747,4.509125892285096,4.456098828405295
401.27,179.15397474837428,10.877881759441298,-14.534341905110848,-0.035321126535232894,4.6542452705718755,3.931217838344148,4.584070152260793
401.28000000000003,179.26293236490025,10.912562527978752,-14.534509130314762,0.0012137288201619061,2.0927002114109525,3.328340109841482,4.69554377377067
401.29,179.37211765389586,10.920058210717622,-14.534340591346627,0.03131254293496936,-0.4588211501844102,2.7259946403741706,4.790118508272868
401.3,179.48124791030753,10.902565639630183,-14.533901756496933,0.05551721075769994,-2.9127454604254734,2.1475585603500997,4.867453988852543
401.31,179.59008134547867,10.861873503153362,-14.533249955397984,0.07428345099690525,-5.195419670869074,1.612931009091715,4.927271891291908
401.32,179.69839823768265,10.79994816036356,-14.532436507478279,0.08812294941854971,-7.251660230672866,1.1374976640603127,4.969356935737764
401.33,179.806000932123,10.718933640976648,-14.531506721962486,0.0976033588460105,-9.046754685077298,0.731592428815327,4.993557661476499
401.34000000000003,179.91271384093383,10.621151645347377,-14.530499897871465,0.10334829916010077,-10.56572302661878,0.40049660065740444,4.999786972029104
401.35,180.01838344317758,10.50910154447169,-14.529449324022265,0.1060373572989613,-11.810477590059088,0.14486696291094678,4.988022448604277
401.36,180.1228782848485,10.385460379983373,-14.528382279028106,0.10640608725825053,-12.795723444870275,-0.03855249356046446,4.9583064307826605
401.37,180.22608897887028,10.253082864156191,-14.5273200312984,0.10524601009099692,-13.544426817767878,-0.15607954540804836,4.910745864138064
401.38,180.32793249611404,10.11477164219995,-14.526277212676678,0.1033307155526987,-14.083445300713368,-0.21602319016073898,4.845511915352597
401.39,180.42836691421587,9.972163837847189,-14.525257318151104,0.10109719551914816,-14.439746894905955,-0.2268657917281503,4.7628393561957045
